level	page_num	block_num	par_num	line_num	word_num	left	top	width	height	conf	text
1	1	0	0	0	0	0	0	2560	1600	-1	
2	1	1	0	0	0	0	5	2554	63	-1	
3	1	1	1	0	0	0	5	2554	63	-1	
4	1	1	1	1	0	2	5	765	24	-1	
5	1	1	1	1	1	2	5	24	24	0.000000	ÌI
5	1	1	1	1	2	35	10	106	18	92.198380	FPT.Ehospital:
5	1	1	1	1	3	149	7	42	17	92.198380	BỆNH
5	1	1	1	1	4	198	7	37	20	93.124786	VIỆN
5	1	1	1	1	5	243	6	38	18	91.605042	PHỔI
5	1	1	1	1	6	287	7	39	17	89.511032	TỈNH
5	1	1	1	1	7	333	7	62	18	92.406372	QUẢNG
5	1	1	1	1	8	402	11	42	13	93.090790	NINH
5	1	1	1	1	9	451	18	6	1	93.306244	-
5	1	1	1	1	10	463	11	60	13	93.154587	SERVER
5	1	1	1	1	11	529	7	32	17	86.017365	MỚI
5	1	1	1	1	12	569	18	5	1	93.306206	-
5	1	1	1	1	13	581	10	47	17	93.221809	[Phiếu
5	1	1	1	1	14	634	11	36	13	91.656181	Điều
5	1	1	1	1	15	676	11	17	16	92.017708	Trị
5	1	1	1	1	16	700	11	15	16	65.137833	(Y
5	1	1	1	1	17	721	10	46	17	92.330246	Lệnh)]
4	1	1	1	2	0	0	39	2554	29	-1	
5	1	1	1	2	1	0	45	1	23	48.115929	\
5	1	1	1	2	2	12	42	18	19	0.000000	s3
5	1	1	1	2	3	47	35	41	34	67.122849	Tiếp
5	1	1	1	2	4	101	35	29	34	67.122849	Đón
5	1	1	1	2	5	149	44	95	18	84.114952	KhámBệnh
5	1	1	1	2	6	266	44	121	19	83.195457	CậnLâmSàng
5	1	1	1	2	7	407	44	83	19	89.600471	LâmSảng
5	1	1	1	2	8	511	44	70	18	92.462540	ViệnPhí
5	1	1	1	2	9	600	42	96	21	92.533539	DượcPhấm
5	1	1	1	2	10	710	35	46	34	81.093056	Phẩu
5	1	1	1	2	11	763	39	134	23	42.561005	thuật/Thủ
5	1	1	1	2	12	852	35	52	34	42.561005	thuật
5	1	1	1	2	13	914	35	66	34	39.830276	Quảnlý
5	1	1	1	2	14	988	35	69	34	39.830276	bệnhán
5	1	1	1	2	15	1073	35	34	34	92.358337	Báo
5	1	1	1	2	16	1118	35	32	34	92.542839	Cáo
5	1	1	1	2	17	1166	35	43	34	87.293968	Danh
5	1	1	1	2	18	1220	35	32	34	87.293968	Mục
5	1	1	1	2	19	1271	44	80	19	87.264053	HệThống
5	1	1	1	2	20	1374	44	73	18	92.185432	NhânSự
5	1	1	1	2	21	1461	35	72	34	89.936897	ChiĐạo
5	1	1	1	2	22	1540	35	52	34	83.507828	Tuyến
5	1	1	1	2	23	1611	44	139	18	73.379517	KếtXuấtDữLiệu
5	1	1	1	2	24	1773	45	45	15	86.422852	BHXH
5	1	1	1	2	25	1844	44	85	19	69.764191	ChữKýSổ
5	1	1	1	2	26	1951	42	60	21	82.873489	Cửa
5	1	1	1	2	27	1991	35	23	34	85.826614	Số
5	1	1	1	2	28	2491	44	63	14	5.905960	-#8x
2	1	2	0	0	0	0	67	2056	2	-1	
3	1	2	1	0	0	0	67	2056	2	-1	
4	1	2	1	1	0	0	67	2056	2	-1	
5	1	2	1	1	1	0	67	2056	2	95.000000	 
2	1	3	0	0	0	0	69	158	40	-1	
3	1	3	1	0	0	0	69	158	40	-1	
4	1	3	1	1	0	0	69	158	40	-1	
5	1	3	1	1	1	0	69	158	40	69.110924	(+
5	1	3	1	1	2	80	65	30	60	0.000000	i
5	1	3	1	1	3	130	65	30	60	93.100838	X
2	1	4	0	0	0	8	117	273	18	-1	
3	1	4	1	0	0	8	117	273	18	-1	
4	1	4	1	1	0	8	117	273	18	-1	
5	1	4	1	1	1	8	117	49	16	92.056389	Thêm
5	1	4	1	1	2	74	117	31	16	90.441269	Sửa
5	1	4	1	1	3	124	117	32	16	87.458084	Xóa
5	1	4	1	1	4	177	119	28	14	89.942604	Lưu
5	1	4	1	1	5	225	117	17	16	34.702896	Bö
5	1	4	1	1	6	251	122	30	13	87.227966	qua
2	1	5	0	0	0	312	72	224	37	-1	
3	1	5	1	0	0	312	72	224	37	-1	
4	1	5	1	1	0	312	72	224	37	-1	
5	1	5	1	1	1	312	73	33	36	60.467808	O
5	1	5	1	1	2	400	76	37	30	77.052101	E
5	1	5	1	1	3	499	72	37	37	75.040466	Q
2	1	6	0	0	0	146	158	149	1	-1	
3	1	6	1	0	0	146	158	149	1	-1	
4	1	6	1	1	0	146	158	149	1	-1	
5	1	6	1	1	1	146	158	149	1	95.000000	 
2	1	7	0	0	0	146	158	1	33	-1	
3	1	7	1	0	0	146	158	1	33	-1	
4	1	7	1	1	0	146	158	1	33	-1	
5	1	7	1	1	1	146	158	1	33	95.000000	 
2	1	8	0	0	0	275	158	1	33	-1	
3	1	8	1	0	0	275	158	1	33	-1	
4	1	8	1	1	0	275	158	1	33	-1	
5	1	8	1	1	1	275	158	1	33	95.000000	 
2	1	9	0	0	0	294	158	1	33	-1	
3	1	9	1	0	0	294	158	1	33	-1	
4	1	9	1	1	0	294	158	1	33	-1	
5	1	9	1	1	1	294	158	1	33	95.000000	 
2	1	10	0	0	0	146	190	149	1	-1	
3	1	10	1	0	0	146	190	149	1	-1	
4	1	10	1	1	0	146	190	149	1	-1	
5	1	10	1	1	1	146	190	149	1	95.000000	 
2	1	11	0	0	0	603	72	249	37	-1	
3	1	11	1	0	0	603	72	249	37	-1	
4	1	11	1	1	0	603	72	249	37	-1	
5	1	11	1	1	1	603	72	34	37	22.615471	2
5	1	11	1	1	2	682	72	170	37	1.513535	esE
5	1	11	1	1	3	816	68	40	58	51.058659	U
2	1	12	0	0	0	926	86	15	22	-1	
3	1	12	1	0	0	926	86	15	22	-1	
4	1	12	1	1	0	926	86	15	22	-1	
5	1	12	1	1	1	926	86	15	22	82.574913	?
2	1	13	0	0	0	306	117	662	19	-1	
3	1	13	1	0	0	306	117	662	19	-1	
4	1	13	1	1	0	306	117	662	19	-1	
5	1	13	1	1	1	306	117	43	19	91.899536	Đóng
5	1	13	1	1	2	375	117	90	16	80.609779	DanhSách
5	1	13	1	1	3	478	117	80	16	67.980507	TìmKiếm
5	1	13	1	1	4	581	117	77	16	91.255508	LàmTươi
5	1	13	1	1	5	692	118	17	15	92.426376	In
5	1	13	1	1	6	733	118	38	15	91.751564	Xem
5	1	13	1	1	7	788	113	45	27	39.818348	Giao
5	1	13	1	1	8	839	113	37	27	39.818348	Diện
5	1	13	1	1	9	899	113	24	27	67.050751	Trơ
5	1	13	1	1	10	932	117	36	18	92.898903	Giúp
2	1	14	0	0	0	1021	72	179	37	-1	
3	1	14	1	0	0	1021	72	179	37	-1	
4	1	14	1	1	0	1021	72	179	37	-1	
5	1	14	1	1	1	1021	72	37	37	95.910782	%
5	1	14	1	1	2	1164	75	36	32	26.473259	IC
2	1	15	0	0	0	990	68	2	72	-1	
3	1	15	1	0	0	990	68	2	72	-1	
4	1	15	1	1	0	990	68	2	72	-1	
5	1	15	1	1	1	990	68	2	72	95.000000	 
2	1	16	0	0	0	1087	68	2	72	-1	
3	1	16	1	0	0	1087	68	2	72	-1	
4	1	16	1	1	0	1087	68	2	72	-1	
5	1	16	1	1	1	1087	68	2	72	95.000000	 
2	1	17	0	0	0	990	138	99	2	-1	
3	1	17	1	0	0	990	138	99	2	-1	
4	1	17	1	1	0	990	138	99	2	-1	
5	1	17	1	1	1	990	138	99	2	95.000000	 
2	1	18	0	0	0	997	113	365	23	-1	
3	1	18	1	0	0	997	113	365	23	-1	
4	1	18	1	1	0	997	113	365	23	-1	
5	1	18	1	1	1	997	117	58	19	86.544579	Nghiệp
5	1	18	1	1	2	1061	122	19	14	64.867371	vụ
5	1	18	1	1	3	1104	117	30	16	64.867371	Xác
5	1	18	1	1	4	1140	117	41	19	93.210152	nhận
5	1	18	1	1	5	1188	113	41	20	93.278580	miễn
5	1	18	1	1	6	1236	117	27	19	55.566467	phí
5	1	18	1	1	7	1281	117	32	19	80.712883	Huỷ
5	1	18	1	1	8	1318	117	29	16	93.227776	xác
5	1	18	1	1	9	1353	122	9	11	82.695557	nl
2	1	19	0	0	0	1363	72	29	37	-1	
3	1	19	1	0	0	1363	72	29	37	-1	
4	1	19	1	1	0	1363	72	29	37	-1	
5	1	19	1	1	1	1363	72	29	37	5.977516	)
2	1	20	0	0	0	14	193	1504	3	-1	
3	1	20	1	0	0	14	193	1504	3	-1	
4	1	20	1	1	0	14	193	1504	3	-1	
5	1	20	1	1	1	14	193	1504	3	95.000000	 
2	1	21	0	0	0	533	193	985	3	-1	
3	1	21	1	0	0	533	193	985	3	-1	
4	1	21	1	1	0	533	193	985	3	-1	
5	1	21	1	1	1	533	193	985	3	95.000000	 
2	1	22	0	0	0	842	194	1	33	-1	
3	1	22	1	0	0	842	194	1	33	-1	
4	1	22	1	1	0	842	194	1	33	-1	
5	1	22	1	1	1	842	194	1	33	95.000000	 
2	1	23	0	0	0	861	194	1	33	-1	
3	1	23	1	0	0	861	194	1	33	-1	
4	1	23	1	1	0	861	194	1	33	-1	
5	1	23	1	1	1	861	194	1	33	95.000000	 
2	1	24	0	0	0	980	194	1	31	-1	
3	1	24	1	0	0	980	194	1	31	-1	
4	1	24	1	1	0	980	194	1	31	-1	
5	1	24	1	1	1	980	194	1	31	95.000000	 
2	1	25	0	0	0	1236	194	1	31	-1	
3	1	25	1	0	0	1236	194	1	31	-1	
4	1	25	1	1	0	1236	194	1	31	-1	
5	1	25	1	1	1	1236	194	1	31	95.000000	 
2	1	26	0	0	0	1361	77	4	150	-1	
3	1	26	1	0	0	1361	77	4	150	-1	
4	1	26	1	1	0	1361	77	4	150	-1	
5	1	26	1	1	1	1361	77	4	150	95.000000	 
2	1	27	0	0	0	1497	196	1	31	-1	
3	1	27	1	0	0	1497	196	1	31	-1	
4	1	27	1	1	0	1497	196	1	31	-1	
5	1	27	1	1	1	1497	196	1	31	95.000000	 
2	1	28	0	0	0	533	224	984	1	-1	
3	1	28	1	0	0	533	224	984	1	-1	
4	1	28	1	1	0	533	224	984	1	-1	
5	1	28	1	1	1	533	224	984	1	95.000000	 
2	1	29	0	0	0	14	227	386	1	-1	
3	1	29	1	0	0	14	227	386	1	-1	
4	1	29	1	1	0	14	227	386	1	-1	
5	1	29	1	1	1	14	227	386	1	95.000000	 
2	1	30	0	0	0	14	194	1	322	-1	
3	1	30	1	0	0	14	194	1	322	-1	
4	1	30	1	1	0	14	194	1	322	-1	
5	1	30	1	1	1	14	194	1	322	95.000000	 
2	1	31	0	0	0	68	194	1	295	-1	
3	1	31	1	0	0	68	194	1	295	-1	
4	1	31	1	1	0	68	194	1	295	-1	
5	1	31	1	1	1	68	194	1	295	95.000000	 
2	1	32	0	0	0	533	226	984	4	-1	
3	1	32	1	0	0	533	226	984	4	-1	
4	1	32	1	1	0	533	226	984	4	-1	
5	1	32	1	1	1	533	226	984	4	95.000000	 
2	1	33	0	0	0	533	260	821	1	-1	
3	1	33	1	0	0	533	260	821	1	-1	
4	1	33	1	1	0	533	260	821	1	-1	
5	1	33	1	1	1	533	260	821	1	95.000000	 
2	1	34	0	0	0	533	266	821	1	-1	
3	1	34	1	0	0	533	266	821	1	-1	
4	1	34	1	1	0	533	266	821	1	-1	
5	1	34	1	1	1	533	266	821	1	95.000000	 
2	1	35	0	0	0	1353	229	1	70	-1	
3	1	35	1	0	0	1353	229	1	70	-1	
4	1	35	1	1	0	1353	229	1	70	-1	
5	1	35	1	1	1	1353	229	1	70	95.000000	 
2	1	36	0	0	0	533	298	821	1	-1	
3	1	36	1	0	0	533	298	821	1	-1	
4	1	36	1	1	0	533	298	821	1	-1	
5	1	36	1	1	1	533	298	821	1	95.000000	 
2	1	37	0	0	0	533	304	985	1	-1	
3	1	37	1	0	0	533	304	985	1	-1	
4	1	37	1	1	0	533	304	985	1	-1	
5	1	37	1	1	1	533	304	985	1	95.000000	 
2	1	38	0	0	0	1052	304	466	1	-1	
3	1	38	1	0	0	1052	304	466	1	-1	
4	1	38	1	1	0	1052	304	466	1	-1	
5	1	38	1	1	1	1052	304	466	1	95.000000	 
2	1	39	0	0	0	533	383	985	1	-1	
3	1	39	1	0	0	533	383	985	1	-1	
4	1	39	1	1	0	533	383	985	1	-1	
5	1	39	1	1	1	533	383	985	1	95.000000	 
2	1	40	0	0	0	1052	383	466	1	-1	
3	1	40	1	0	0	1052	383	466	1	-1	
4	1	40	1	1	0	1052	383	466	1	-1	
5	1	40	1	1	1	1052	383	466	1	95.000000	 
2	1	41	0	0	0	533	394	985	1	-1	
3	1	41	1	0	0	533	394	985	1	-1	
4	1	41	1	1	0	533	394	985	1	-1	
5	1	41	1	1	1	533	394	985	1	95.000000	 
2	1	42	0	0	0	942	304	1	175	-1	
3	1	42	1	0	0	942	304	1	175	-1	
4	1	42	1	1	0	942	304	1	175	-1	
5	1	42	1	1	1	942	304	1	175	95.000000	 
2	1	43	0	0	0	533	478	410	1	-1	
3	1	43	1	0	0	533	478	410	1	-1	
4	1	43	1	1	0	533	478	410	1	-1	
5	1	43	1	1	1	533	478	410	1	95.000000	 
2	1	44	0	0	0	1052	394	466	1	-1	
3	1	44	1	0	0	1052	394	466	1	-1	
4	1	44	1	1	0	1052	394	466	1	-1	
5	1	44	1	1	1	1052	394	466	1	95.000000	 
2	1	45	0	0	0	1052	304	1	170	-1	
3	1	45	1	0	0	1052	304	1	170	-1	
4	1	45	1	1	0	1052	304	1	170	-1	
5	1	45	1	1	1	1052	304	1	170	95.000000	 
2	1	46	0	0	0	1517	304	1	170	-1	
3	1	46	1	0	0	1517	304	1	170	-1	
4	1	46	1	1	0	1517	304	1	170	-1	
5	1	46	1	1	1	1517	304	1	170	95.000000	 
2	1	47	0	0	0	1052	473	466	1	-1	
3	1	47	1	0	0	1052	473	466	1	-1	
4	1	47	1	1	0	1052	473	466	1	-1	
5	1	47	1	1	1	1052	473	466	1	95.000000	 
2	1	48	0	0	0	533	484	821	1	-1	
3	1	48	1	0	0	533	484	821	1	-1	
4	1	48	1	1	0	533	484	821	1	-1	
5	1	48	1	1	1	533	484	821	1	95.000000	 
2	1	49	0	0	0	426	194	1	322	-1	
3	1	49	1	0	0	426	194	1	322	-1	
4	1	49	1	1	0	426	194	1	322	-1	
5	1	49	1	1	1	426	194	1	322	95.000000	 
2	1	50	0	0	0	533	194	1	322	-1	
3	1	50	1	0	0	533	194	1	322	-1	
4	1	50	1	1	0	533	194	1	322	-1	
5	1	50	1	1	1	533	194	1	322	95.000000	 
2	1	51	0	0	0	707	484	1	32	-1	
3	1	51	1	0	0	707	484	1	32	-1	
4	1	51	1	1	0	707	484	1	32	-1	
5	1	51	1	1	1	707	484	1	32	95.000000	 
2	1	52	0	0	0	848	484	506	1	-1	
3	1	52	1	0	0	848	484	506	1	-1	
4	1	52	1	1	0	848	484	506	1	-1	
5	1	52	1	1	1	848	484	506	1	95.000000	 
2	1	53	0	0	0	1160	484	194	1	-1	
3	1	53	1	0	0	1160	484	194	1	-1	
4	1	53	1	1	0	1160	484	194	1	-1	
5	1	53	1	1	1	1160	484	194	1	95.000000	 
2	1	54	0	0	0	1028	484	1	32	-1	
3	1	54	1	0	0	1028	484	1	32	-1	
4	1	54	1	1	0	1028	484	1	32	-1	
5	1	54	1	1	1	1028	484	1	32	95.000000	 
2	1	55	0	0	0	1047	484	1	32	-1	
3	1	55	1	0	0	1047	484	1	32	-1	
4	1	55	1	1	0	1047	484	1	32	-1	
5	1	55	1	1	1	1047	484	1	32	95.000000	 
2	1	56	0	0	0	1334	484	1	32	-1	
3	1	56	1	0	0	1334	484	1	32	-1	
4	1	56	1	1	0	1334	484	1	32	-1	
5	1	56	1	1	1	1334	484	1	32	95.000000	 
2	1	57	0	0	0	1353	484	1	32	-1	
3	1	57	1	0	0	1353	484	1	32	-1	
4	1	57	1	1	0	1353	484	1	32	-1	
5	1	57	1	1	1	1353	484	1	32	95.000000	 
2	1	58	0	0	0	14	515	1340	1	-1	
3	1	58	1	0	0	14	515	1340	1	-1	
4	1	58	1	1	0	14	515	1340	1	-1	
5	1	58	1	1	1	14	515	1340	1	95.000000	 
2	1	59	0	0	0	533	515	821	1	-1	
3	1	59	1	0	0	533	515	821	1	-1	
4	1	59	1	1	0	533	515	821	1	-1	
5	1	59	1	1	1	533	515	821	1	95.000000	 
2	1	60	0	0	0	848	515	506	1	-1	
3	1	60	1	0	0	848	515	506	1	-1	
4	1	60	1	1	0	848	515	506	1	-1	
5	1	60	1	1	1	848	515	506	1	95.000000	 
2	1	61	0	0	0	1160	515	194	1	-1	
3	1	61	1	0	0	1160	515	194	1	-1	
4	1	61	1	1	0	1160	515	194	1	-1	
5	1	61	1	1	1	1160	515	194	1	95.000000	 
2	1	62	0	0	0	680	523	481	4	-1	
3	1	62	1	0	0	680	523	481	4	-1	
4	1	62	1	1	0	680	523	481	4	-1	
5	1	62	1	1	1	680	523	481	4	95.000000	 
2	1	63	0	0	0	680	523	1	32	-1	
3	1	63	1	0	0	680	523	1	32	-1	
4	1	63	1	1	0	680	523	1	32	-1	
5	1	63	1	1	1	680	523	1	32	95.000000	 
2	1	64	0	0	0	848	526	313	1	-1	
3	1	64	1	0	0	848	526	313	1	-1	
4	1	64	1	1	0	848	526	313	1	-1	
5	1	64	1	1	1	848	526	313	1	95.000000	 
2	1	65	0	0	0	726	484	1	71	-1	
3	1	65	1	0	0	726	484	1	71	-1	
4	1	65	1	1	0	726	484	1	71	-1	
5	1	65	1	1	1	726	484	1	71	95.000000	 
2	1	66	0	0	0	848	484	1	74	-1	
3	1	66	1	0	0	848	484	1	74	-1	
4	1	66	1	1	0	848	484	1	74	-1	
5	1	66	1	1	1	848	484	1	74	95.000000	 
2	1	67	0	0	0	1160	484	1	74	-1	
3	1	67	1	0	0	1160	484	1	74	-1	
4	1	67	1	1	0	1160	484	1	74	-1	
5	1	67	1	1	1	1160	484	1	74	95.000000	 
2	1	68	0	0	0	680	554	481	4	-1	
3	1	68	1	0	0	680	554	481	4	-1	
4	1	68	1	1	0	680	554	481	4	-1	
5	1	68	1	1	1	680	554	481	4	95.000000	 
2	1	69	0	0	0	848	557	313	1	-1	
3	1	69	1	0	0	848	557	313	1	-1	
4	1	69	1	1	0	848	557	313	1	-1	
5	1	69	1	1	1	848	557	313	1	95.000000	 
2	1	70	0	0	0	1209	622	249	1	-1	
3	1	70	1	0	0	1209	622	249	1	-1	
4	1	70	1	1	0	1209	622	249	1	-1	
5	1	70	1	1	1	1209	622	249	1	95.000000	 
2	1	71	0	0	0	1209	622	1	32	-1	
3	1	71	1	0	0	1209	622	1	32	-1	
4	1	71	1	1	0	1209	622	1	32	-1	
5	1	71	1	1	1	1209	622	1	32	95.000000	 
2	1	72	0	0	0	1437	622	1	32	-1	
3	1	72	1	0	0	1437	622	1	32	-1	
4	1	72	1	1	0	1437	622	1	32	-1	
5	1	72	1	1	1	1437	622	1	32	95.000000	 
2	1	73	0	0	0	1457	622	1	32	-1	
3	1	73	1	0	0	1457	622	1	32	-1	
4	1	73	1	1	0	1457	622	1	32	-1	
5	1	73	1	1	1	1457	622	1	32	95.000000	 
2	1	74	0	0	0	1209	653	249	1	-1	
3	1	74	1	0	0	1209	653	249	1	-1	
4	1	74	1	1	0	1209	653	249	1	-1	
5	1	74	1	1	1	1209	653	249	1	95.000000	 
2	1	75	0	0	0	1856	96	158	19	-1	
3	1	75	1	0	0	1856	96	158	19	-1	
4	1	75	1	1	0	1856	96	158	19	-1	
5	1	75	1	1	1	1856	96	47	19	88.242111	KýSố
5	1	75	1	1	2	1923	98	36	14	92.584427	Xem
5	1	75	1	1	3	1967	96	19	19	91.537033	Ký
5	1	75	1	1	4	1992	96	22	16	92.033203	Số
2	1	76	0	0	0	1364	113	479	23	-1	
3	1	76	1	0	0	1364	113	479	23	-1	
4	1	76	1	1	0	1364	113	479	23	-1	
5	1	76	1	1	1	1364	117	30	19	91.713669	hận
5	1	76	1	1	2	1401	113	41	20	92.308243	miễn
5	1	76	1	1	3	1449	117	27	19	71.743362	phí.
5	1	76	1	1	4	1495	119	31	14	90.131157	Toa
5	1	76	1	1	5	1533	117	46	16	90.805725	thuốc
5	1	76	1	1	6	1586	117	18	16	90.805725	cũ
5	1	76	1	1	7	1618	109	6	31	37.818405	_
5	1	76	1	1	8	1626	119	17	14	79.499405	In
5	1	76	1	1	9	1650	117	45	16	89.910141	Phiếu
5	1	76	1	1	10	1703	117	40	19	93.157547	Công
5	1	76	1	1	11	1751	117	34	16	93.264198	Khai
5	1	76	1	1	12	1792	117	51	16	92.747955	Thuốc
2	1	77	0	0	0	11	670	2542	1	-1	
3	1	77	1	0	0	11	670	2542	1	-1	
4	1	77	1	1	0	11	670	2542	1	-1	
5	1	77	1	1	1	11	670	2542	1	95.000000	 
2	1	78	0	0	0	11	709	2542	1	-1	
3	1	78	1	0	0	11	709	2542	1	-1	
4	1	78	1	1	0	11	709	2542	1	-1	
5	1	78	1	1	1	11	709	2542	1	95.000000	 
2	1	79	0	0	0	11	742	31	1	-1	
3	1	79	1	0	0	11	742	31	1	-1	
4	1	79	1	1	0	11	742	31	1	-1	
5	1	79	1	1	1	11	742	31	1	95.000000	 
2	1	80	0	0	0	11	775	31	1	-1	
3	1	80	1	0	0	11	775	31	1	-1	
4	1	80	1	1	0	11	775	31	1	-1	
5	1	80	1	1	1	11	775	31	1	95.000000	 
2	1	81	0	0	0	11	808	31	1	-1	
3	1	81	1	0	0	11	808	31	1	-1	
4	1	81	1	1	0	11	808	31	1	-1	
5	1	81	1	1	1	11	808	31	1	95.000000	 
2	1	82	0	0	0	11	841	31	1	-1	
3	1	82	1	0	0	11	841	31	1	-1	
4	1	82	1	1	0	11	841	31	1	-1	
5	1	82	1	1	1	11	841	31	1	95.000000	 
2	1	83	0	0	0	11	874	31	1	-1	
3	1	83	1	0	0	11	874	31	1	-1	
4	1	83	1	1	0	11	874	31	1	-1	
5	1	83	1	1	1	11	874	31	1	95.000000	 
2	1	84	0	0	0	41	670	1	237	-1	
3	1	84	1	0	0	41	670	1	237	-1	
4	1	84	1	1	0	41	670	1	237	-1	
5	1	84	1	1	1	41	670	1	237	95.000000	 
2	1	85	0	0	0	38	1463	2184	3	-1	
3	1	85	1	0	0	38	1463	2184	3	-1	
4	1	85	1	1	0	38	1463	2184	3	-1	
5	1	85	1	1	1	38	1463	2184	3	95.000000	 
2	1	86	0	0	0	11	670	1	803	-1	
3	1	86	1	0	0	11	670	1	803	-1	
4	1	86	1	1	0	11	670	1	803	-1	
5	1	86	1	1	1	11	670	1	803	95.000000	 
2	1	87	0	0	0	2552	609	1	864	-1	
3	1	87	1	0	0	2552	609	1	864	-1	
4	1	87	1	1	0	2552	609	1	864	-1	
5	1	87	1	1	1	2552	609	1	864	95.000000	 
2	1	88	0	0	0	9	1472	2544	1	-1	
3	1	88	1	0	0	9	1472	2544	1	-1	
4	1	88	1	1	0	9	1472	2544	1	-1	
5	1	88	1	1	1	9	1472	2544	1	95.000000	 
2	1	89	0	0	0	11	162	2542	1354	-1	
3	1	89	1	0	0	20	162	1490	62	-1	
4	1	89	1	1	0	20	162	826	23	-1	
5	1	89	1	1	1	20	165	95	19	70.189133	Sốbệnhán
5	1	89	1	1	2	150	167	90	14	37.272713	25.020318..
5	1	89	1	1	3	281	171	7	5	93.292282	-
5	1	89	1	1	4	314	165	64	16	85.274086	MãYtế
5	1	89	1	1	5	422	167	161	14	85.274086	 22044.24002655
5	1	89	1	1	6	660	162	71	19	92.356750	HOÀNG
5	1	89	1	1	7	738	162	41	19	92.750610	VĂN
5	1	89	1	1	8	786	162	60	23	92.239594	TRIỆU
4	1	89	1	2	0	74	195	1436	29	-1	
5	1	89	1	2	1	70	197	29	36	0.000000	(B)|
5	1	89	1	2	2	109	197	33	36	91.264091	Thời
5	1	89	1	2	3	147	206	35	17	91.264091	gian
5	1	89	1	2	4	189	204	46	16	93.009399	khám
5	1	89	1	2	5	371	201	27	22	11.455498	|Ký
5	1	89	1	2	6	412	196	9	36	45.811089	-
5	1	89	1	2	7	431	201	42	19	90.205521	Ngày
5	1	89	1	2	8	540	201	128	19	85.420113	24/02/2025
5	1	89	1	2	9	690	203	102	14	86.713524	13:17:07
5	1	89	1	2	10	848	207	7	5	43.517071	 (-|
5	1	89	1	2	11	877	201	81	19	86.710411	Đốitượng
5	1	89	1	2	12	987	201	145	17	52.848110	|BHYT(100%)-QL2
5	1	89	1	2	13	1242	195	15	29	0.000000	-J
5	1	89	1	2	14	1283	201	55	19	90.575920	Chukỳ
5	1	89	1	2	15	1503	209	7	5	75.820412	-
3	1	89	2	0	0	39	226	1363	32	-1	
4	1	89	2	1	0	39	226	698	32	-1	
5	1	89	2	1	1	39	233	29	25	74.865921	2
5	1	89	2	1	2	74	233	19	19	14.973183	|[-]
5	1	89	2	1	3	104	235	98	18	90.841995	26/02/2025
5	1	89	2	1	4	210	236	45	14	89.937897	16:00
5	1	89	2	1	5	413	226	2	23	91.867073	|
5	1	89	2	1	6	431	234	41	17	67.315353	|Chấn
5	1	89	2	1	7	478	236	42	15	93.249519	đoán
5	1	89	2	1	8	537	237	30	17	91.695343	Đợt
5	1	89	2	1	9	573	236	27	18	93.221992	cấp
5	1	89	2	1	10	608	237	45	14	92.897224	COPD
5	1	89	2	1	11	660	240	41	14	93.237602	nguy
5	1	89	2	1	12	707	236	30	18	93.196114	kịch
3	1	89	3	0	0	39	263	434	27	-1	
4	1	89	3	1	0	39	263	434	27	-1	
5	1	89	3	1	1	35	256	18	36	80.010811	3
5	1	89	3	1	2	74	263	19	19	47.643761	|[]
5	1	89	3	1	3	104	265	98	18	92.335075	26/02/2025
5	1	89	3	1	4	209	266	46	14	73.442429	08:00
5	1	89	3	1	5	269	264	55	19	47.224068	(VTYT)
5	1	89	3	1	6	431	276	42	14	27.729095	T
3	1	89	4	0	0	42	293	974	20	-1	
4	1	89	4	1	0	42	293	974	20	-1	
5	1	89	4	1	1	42	293	12	14	78.730698	4
5	1	89	4	1	2	74	293	19	19	0.000000	|[-]
5	1	89	4	1	3	104	295	98	18	84.437622	26/02/2025
5	1	89	4	1	4	209	296	46	14	89.150238	08:00
5	1	89	4	1	5	449	306	7	4	52.361244	-
5	1	89	4	1	6	982	306	34	4	0.000000	Ea
3	1	89	5	0	0	39	306	968	16	-1	
4	1	89	5	1	0	39	306	968	16	-1	
5	1	89	5	1	1	39	317	29	1	74.280472	-
5	1	89	5	1	2	443	311	13	3	75.238152	iễn
5	1	89	5	1	3	485	311	16	3	91.452988	biết
5	1	89	5	1	4	959	306	20	16	79.535164	Chế
5	1	89	5	1	5	996	306	11	16	53.483986	đ
3	1	89	6	0	0	39	309	978	39	-1	
4	1	89	6	1	0	39	309	978	39	-1	
5	1	89	6	1	1	35	311	18	41	65.830887	5
5	1	89	6	1	2	74	323	19	19	0.000000	|[-]
5	1	89	6	1	3	104	325	98	18	88.506157	25/02/2025
5	1	89	6	1	4	209	326	46	14	38.444565	08:00
5	1	89	6	1	5	269	324	55	19	38.444565	(VTVT)
5	1	89	6	1	6	431	311	78	15	0.000000	Phobeg
5	1	89	6	1	7	541	309	17	14	0.637299	|
5	1	89	6	1	8	959	311	30	32	0.000000	ăn
5	1	89	6	1	9	1007	311	10	11	11.645706	Ỗ
3	1	89	7	0	0	39	353	974	35	-1	
4	1	89	7	1	0	39	353	974	35	-1	
5	1	89	7	1	1	35	346	18	36	91.723557	6
5	1	89	7	1	2	74	353	19	19	9.980225	|[]
5	1	89	7	1	3	104	355	98	18	90.556290	25/02/2025
5	1	89	7	1	4	209	356	46	14	89.665253	08:00
5	1	89	7	1	5	956	372	57	16	41.103821	l
3	1	89	8	0	0	39	377	997	35	-1	
4	1	89	8	1	0	39	377	997	35	-1	
5	1	89	8	1	1	35	376	15	36	63.588989	7
5	1	89	8	1	2	74	383	19	19	0.000000	|[]
5	1	89	8	1	3	104	385	98	18	82.951950	24/02/2025
5	1	89	8	1	4	210	386	46	14	92.531120	14:45
5	1	89	8	1	5	439	398	11	14	46.358246	Y
5	1	89	8	1	6	457	396	34	16	46.358246	lệnh
5	1	89	8	1	7	956	377	80	32	0.000000	E
3	1	89	9	0	0	39	413	469	25	-1	
4	1	89	9	1	0	39	413	469	25	-1	
5	1	89	9	1	1	35	406	18	36	92.716255	8
5	1	89	9	1	2	74	413	19	19	61.147396	|[]
5	1	89	9	1	3	104	415	98	18	85.831177	24/02/2025
5	1	89	9	1	4	210	416	46	14	91.885857	14:15
5	1	89	9	1	5	439	413	38	20	93.171196	theo
5	1	89	9	1	6	483	417	25	16	90.271400	dõi
3	1	89	10	0	0	39	438	362	30	-1	
4	1	89	10	1	0	39	438	362	30	-1	
5	1	89	10	1	1	39	443	15	25	18.084122	©
5	1	89	10	1	2	68	423	24	57	22.727402	]7
5	1	89	10	1	3	99	438	302	30	31.717094	2907205133
5	1	89	10	1	4	272	423	48	57	9.351738	VND
5	1	89	10	1	5	362	423	44	57	47.859489	I
3	1	89	11	0	0	43	473	1097	21	-1	
4	1	89	11	1	0	43	473	1097	21	-1	
5	1	89	11	1	1	43	473	50	16	0.000000	10i(]
5	1	89	11	1	2	104	475	98	15	89.703102	24/02/2025
5	1	89	11	1	3	209	476	46	14	93.245552	09:00
5	1	89	11	1	4	445	491	35	3	0.000000	i
5	1	89	11	1	5	583	486	89	8	38.285137	7
5	1	89	11	1	6	749	491	13	3	58.242081	~
5	1	89	11	1	7	1076	491	64	3	32.301910	m
3	1	89	12	0	0	17	491	2536	213	-1	
4	1	89	12	1	0	431	491	916	18	-1	
5	1	89	12	1	1	431	492	29	14	91.525482	Bắc
5	1	89	12	1	2	467	495	12	11	92.741287	sĩ
5	1	89	12	1	3	540	492	62	17	73.511490	Nguyên
5	1	89	12	1	4	609	492	31	14	85.183311	Đức
5	1	89	12	1	5	646	492	26	17	90.622299	Đợi
5	1	89	12	1	6	713	497	7	5	78.375610	*
5	1	89	12	1	7	725	486	9	29	93.303841	|
5	1	89	12	1	8	736	492	37	14	91.010559	Điều
5	1	89	12	1	9	780	491	52	18	92.767342	dưỡng
5	1	89	12	1	10	1034	497	7	5	21.512268	-|
5	1	89	12	1	11	1064	491	58	18	66.963890	Cấphộ
5	1	89	12	1	12	1129	491	13	18	80.407738	lý
5	1	89	12	1	13	1340	497	7	5	37.623768	-
4	1	89	12	2	0	17	530	1136	24	-1	
5	1	89	12	2	1	17	535	16	16	52.584423	[
5	1	89	12	2	2	45	537	52	14	89.460472	Raviện
5	1	89	12	2	3	122	535	16	16	62.225143	[
5	1	89	12	2	4	150	538	119	16	88.757530	KhámNgoạiTrú
5	1	89	12	2	5	296	535	16	16	8.201050	Ïˆ
5	1	89	12	2	6	323	538	100	13	90.449799	ThuốcĐặcTrị
5	1	89	12	2	7	576	530	25	15	92.694359	Tái
5	1	89	12	2	8	608	530	45	15	93.220070	khám
5	1	89	12	2	9	743	530	42	18	93.210083	Ngày
5	1	89	12	2	10	883	533	50	18	55.776138	;<
5	1	89	12	2	11	1146	539	7	4	47.828575	Y
4	1	89	12	3	0	28	585	120	16	-1	
5	1	89	12	3	1	28	585	55	16	92.978790	Thuốc
5	1	89	12	3	2	88	593	8	2	92.808601	-
5	1	89	12	3	3	101	587	47	14	91.406708	VIYT
4	1	89	12	4	0	23	622	1184	35	-1	
5	1	89	12	4	1	23	622	262	35	55.922737	Ộ_
5	1	89	12	4	2	350	629	33	14	93.058167	Mua
5	1	89	12	4	3	391	627	45	19	92.466919	ngoài
5	1	89	12	4	4	482	627	83	19	90.565170	Cấpthuốc
5	1	89	12	4	5	601	630	25	14	82.745018	 Nơi
5	1	89	12	4	6	634	629	37	18	93.187485	phát
5	1	89	12	4	7	676	629	47	15	92.823883	thuốc
5	1	89	12	4	8	1081	630	41	17	92.437691	Dược
5	1	89	12	4	9	1128	629	79	18	91.486725	Templete
4	1	89	12	5	0	65	676	2488	28	-1	
5	1	89	12	5	1	65	683	53	18	48.708382	Nguồn
5	1	89	12	5	2	138	676	40	28	63.243961	STT
5	1	89	12	5	3	198	676	38	28	32.800476	Tên
5	1	89	12	5	4	243	683	47	15	89.122131	thuốc
5	1	89	12	5	5	674	676	1	28	92.637337	|
5	1	89	12	5	6	696	684	34	14	45.328259	ĐWVT
5	1	89	12	5	7	749	676	59	28	79.830864	|Sốlân
5	1	89	12	5	8	824	676	80	28	28.834999	|Sốlượng.
5	1	89	12	5	9	959	676	1	28	80.936546	|
5	1	89	12	5	10	992	683	39	15	87.717888	Cách
5	1	89	12	5	11	1038	683	41	18	93.149208	dùng
5	1	89	12	5	12	1287	683	26	15	93.061806	Ghi
5	1	89	12	5	13	1320	683	29	15	93.280548	chú
5	1	89	12	5	14	1526	676	80	28	89.817268	|BNtựtrả
5	1	89	12	5	15	1612	676	39	28	74.361313	tiên
5	1	89	12	5	16	1664	676	137	28	52.911453	Khôngtínhtiên
5	1	89	12	5	17	1835	683	85	18	45.411854	CGộpthuốc
5	1	89	12	5	18	1941	672	16	37	93.167641	|
5	1	89	12	5	19	1961	683	31	18	92.225319	Huỷ
5	1	89	12	5	20	2000	676	54	28	92.635246	|SL
5	1	89	12	5	21	2036	672	17	37	92.759987	Đã
5	1	89	12	5	22	2061	684	22	14	93.026970	trả
5	1	89	12	5	23	2150	676	1	28	93.269661	|
5	1	89	12	5	24	2176	683	25	15	89.270935	Tổi
5	1	89	12	5	25	2225	676	1	28	93.303230	|
5	1	89	12	5	26	2238	683	46	15	58.482712	Chiều
5	1	89	12	5	27	2295	676	1	28	93.255112	|
5	1	89	12	5	28	2314	684	37	14	93.129997	Trưa
5	1	89	12	5	29	2367	676	1	28	93.305962	|
5	1	89	12	5	30	2384	683	41	18	91.834885	Sáng
5	1	89	12	5	31	2438	676	1	28	96.988167	|
5	1	89	12	5	32	2511	683	42	16	92.073669	Phiết
3	1	89	13	0	0	11	714	2541	795	-1	
4	1	89	13	1	0	16	714	2536	25	-1	
5	1	89	13	1	1	16	714	13	18	88.312225	+
5	1	89	13	1	2	48	714	46	25	12.286743	|Viện
5	1	89	13	1	3	103	714	34	20	93.092918	Phí
5	1	89	13	1	4	207	714	39	25	93.200569	Dây
5	1	89	13	1	5	254	714	67	25	91.405685	truyền
5	1	89	13	1	6	329	714	43	25	91.405685	dịch
5	1	89	13	1	7	380	720	25	14	93.246544	an
5	1	89	13	1	8	413	714	47	20	93.249016	toàn
5	1	89	13	1	9	469	714	35	25	93.094849	loại
5	1	89	13	1	10	514	716	25	18	93.279541	20
5	1	89	13	1	11	551	716	38	23	84.100838	giọt
5	1	89	13	1	12	605	705	70	38	83.599617	INTRA
5	1	89	13	1	13	682	714	26	25	83.599617	Bộ
5	1	89	13	1	14	728	705	20	38	55.999146	.
5	1	89	13	1	15	757	716	11	18	55.999146	5
5	1	89	13	1	16	940	716	11	18	96.583923	5
5	1	89	13	1	17	1578	716	19	19	1.332863	]
5	1	89	13	1	18	1716	716	19	19	1.332863	]
5	1	89	13	1	19	1866	716	19	19	17.549957	]
5	1	89	13	1	20	1965	716	19	19	17.549957	]
5	1	89	13	1	21	2446	716	106	18	69.551849	HSCC2PLZ
4	1	89	13	2	0	16	747	2536	25	-1	
5	1	89	13	2	1	16	747	11	14	54.416878	2
5	1	89	13	2	2	48	747	46	25	69.253731	Viện
5	1	89	13	2	3	103	747	34	20	93.295090	Phí
5	1	89	13	2	4	207	749	37	18	92.984207	Kim
5	1	89	13	2	5	253	747	29	25	77.456245	lấy
5	1	89	13	2	6	290	747	58	20	92.646667	thuốc
5	1	89	13	2	7	681	747	31	20	73.819397	Cái
5	1	89	13	2	8	758	749	10	18	91.789757	1
5	1	89	13	2	9	940	749	11	18	96.978333	3
5	1	89	13	2	10	1578	749	19	19	76.134277	E
5	1	89	13	2	11	1716	749	19	19	76.134277	E
5	1	89	13	2	12	1866	749	19	19	76.134277	E
5	1	89	13	2	13	1965	749	19	19	74.646835	E
5	1	89	13	2	14	2446	749	106	18	88.785431	HSCC2PL;
4	1	89	13	3	0	15	780	2537	25	-1	
5	1	89	13	3	1	15	780	11	14	53.212833	3
5	1	89	13	3	2	48	780	46	25	71.903763	Viện
5	1	89	13	3	3	103	780	34	20	92.981110	Phí
5	1	89	13	3	4	207	782	45	18	92.948608	Bơm
5	1	89	13	3	5	260	780	46	20	92.597145	tiêm
5	1	89	13	3	6	315	782	44	18	92.590073	ECO
5	1	89	13	3	7	366	780	27	20	92.590073	sử
5	1	89	13	3	8	399	780	52	25	92.506287	dụng
5	1	89	13	3	9	460	780	41	25	93.120804	một
5	1	89	13	3	10	510	780	30	20	92.968971	lần
5	1	89	13	3	11	550	780	48	20	93.121025	10ml
5	1	89	13	3	12	681	780	31	20	73.819397	Cái
5	1	89	13	3	13	758	782	10	18	91.789757	1
5	1	89	13	3	14	940	782	11	18	97.013618	2
5	1	89	13	3	15	1578	782	19	19	74.646835	E
5	1	89	13	3	16	1716	782	19	19	74.646835	E
5	1	89	13	3	17	1866	782	19	19	76.134277	E
5	1	89	13	3	18	1965	782	19	19	76.134277	E
5	1	89	13	3	19	2446	782	106	18	86.662270	HSCC2PL;
4	1	89	13	4	0	15	813	2537	25	-1	
5	1	89	13	4	1	15	813	12	14	88.626030	4
5	1	89	13	4	2	48	813	46	25	73.298248	|Viện
5	1	89	13	4	3	103	813	34	20	91.252968	Phí
5	1	89	13	4	4	207	815	45	18	92.946747	Bơm
5	1	89	13	4	5	260	813	46	20	93.166039	tiêm
5	1	89	13	4	6	315	815	44	18	93.255394	ECO
5	1	89	13	4	7	366	813	27	20	93.268585	sử
5	1	89	13	4	8	399	813	52	25	93.227470	dụng
5	1	89	13	4	9	460	813	41	25	93.156357	một
5	1	89	13	4	10	510	813	30	20	93.149925	lần
5	1	89	13	4	11	549	813	36	20	92.181213	5ml
5	1	89	13	4	12	681	813	31	20	73.300674	Cái
5	1	89	13	4	13	758	815	10	18	92.531799	1
5	1	89	13	4	14	941	815	10	18	97.003906	1
5	1	89	13	4	15	1578	815	19	19	74.415779	E
5	1	89	13	4	16	1716	815	19	19	74.415779	E
5	1	89	13	4	17	1866	815	19	19	74.415779	E
5	1	89	13	4	18	1965	815	19	19	76.287689	E
5	1	89	13	4	19	2446	815	106	18	82.410194	HSCC2PLZ
4	1	89	13	5	0	15	846	2537	25	-1	
5	1	89	13	5	1	15	846	11	14	90.921349	5
5	1	89	13	5	2	48	846	46	25	49.023872	|Viện
5	1	89	13	5	3	103	846	34	20	91.885735	Phí
5	1	89	13	5	4	207	846	39	25	93.246567	Dây
5	1	89	13	5	5	254	846	36	20	93.246567	thở
5	1	89	13	5	6	298	852	37	19	93.251930	oxy
5	1	89	13	5	7	343	848	45	18	93.238770	MPV
5	1	89	13	5	8	397	846	59	25	93.241684	người
5	1	89	13	5	9	466	846	32	20	93.225174	lớn
5	1	89	13	5	10	681	846	31	20	73.300674	Cái
5	1	89	13	5	11	758	848	10	18	92.531799	1
5	1	89	13	5	12	941	848	10	18	97.003906	1
5	1	89	13	5	13	1578	848	19	19	76.287689	E
5	1	89	13	5	14	1716	848	19	19	76.287689	E
5	1	89	13	5	15	1866	848	19	19	74.415779	E
5	1	89	13	5	16	1965	848	19	19	74.415779	E
5	1	89	13	5	17	2446	848	106	18	79.373871	HSCC2PLZ
4	1	89	13	6	0	12	877	2540	32	-1	
5	1	89	13	6	1	12	879	29	29	37.908661	6ỳ
5	1	89	13	6	2	48	879	46	25	93.247795	Viện
5	1	89	13	6	3	103	879	34	20	91.450546	Phí
5	1	89	13	6	4	207	881	45	18	92.761688	Bơm
5	1	89	13	6	5	260	879	46	20	92.103607	tiêm
5	1	89	13	6	6	314	879	53	25	92.511238	nhựa
5	1	89	13	6	7	377	879	35	20	92.991302	1ml
5	1	89	13	6	8	681	879	31	20	73.819397	Cái
5	1	89	13	6	9	758	881	10	18	91.789757	1
5	1	89	13	6	10	940	881	11	18	97.013618	2
5	1	89	13	6	11	1578	881	19	19	76.134277	E
5	1	89	13	6	12	1866	881	19	19	76.134277	E
5	1	89	13	6	13	1965	881	19	19	74.646835	E
5	1	89	13	6	14	2446	877	106	32	88.785431	HSCC2PL;
4	1	89	13	7	0	11	1495	2509	21	-1	
5	1	89	13	7	1	11	1499	4	6	62.539154	l
5	1	89	13	7	2	70	1502	24	7	92.210129	óng:
5	1	89	13	7	3	113	1499	14	10	91.274498	Ctr
5	1	89	13	7	4	220	1499	14	10	68.644028	Cu
5	1	89	13	7	5	292	1507	3	2	93.300873	a
5	1	89	13	7	6	308	1499	32	10	0.000000	CtríD
5	1	89	13	7	7	371	1503	14	6	86.385132	oá
5	1	89	13	7	8	398	1499	14	10	68.223000	Ctr
5	1	89	13	7	9	485	1499	14	10	92.647186	Cu
5	1	89	13	7	10	545	1499	43	10	92.126923	Không
5	1	89	13	7	11	632	1499	91	10	43.976036	CtrlQ=Đóng
5	1	89	13	7	12	752	1507	4	2	85.920013	à
5	1	89	13	7	13	821	1499	14	10	92.647186	Cu
5	1	89	13	7	14	956	1499	55	10	39.090309	CtrliP=P
5	1	89	13	7	15	1496	1502	4	7	93.097916	g
5	1	89	13	7	16	1654	1502	14	7	90.657677	0a
5	1	89	13	7	17	1748	1495	9	21	91.159042	tí
5	1	89	13	7	18	2129	1502	4	7	95.956177	u
5	1	89	13	7	19	2173	1502	3	7	75.060966	D
5	1	89	13	7	20	2417	1500	4	9	96.402534	0
5	1	89	13	7	21	2456	1500	4	9	96.224754	0
5	1	89	13	7	22	2516	1500	4	9	96.349953	0
