level	page_num	block_num	par_num	line_num	word_num	left	top	width	height	conf	text
1	1	0	0	0	0	0	0	1920	1080	-1	
2	1	1	0	0	0	0	4	709	58	-1	
3	1	1	1	0	0	0	4	709	56	-1	
4	1	1	1	1	0	2	4	707	20	-1	
5	1	1	1	1	1	2	4	20	20	76.065308	H]
5	1	1	1	1	2	30	9	84	11	86.619781	FPT.Ehospital:
5	1	1	1	1	3	124	9	35	11	93.144226	BỆNH
5	1	1	1	1	4	165	6	30	14	91.824310	VIỆN
5	1	1	1	1	5	202	4	28	16	93.285316	PHỔI
5	1	1	1	1	6	240	9	31	11	92.756424	TỈNH
5	1	1	1	1	7	278	9	50	12	93.229263	QUẢNG
5	1	1	1	1	8	335	9	35	11	82.058670	NỊNH
5	1	1	1	1	9	376	15	4	1	92.632484	=
5	1	1	1	1	10	386	9	49	10	92.632484	SERVER
5	1	1	1	1	11	441	9	26	10	38.878159	MỚIL
5	1	1	1	1	12	474	15	4	1	55.374596	=
5	1	1	1	1	13	484	9	36	10	85.043129	[Chẩn
5	1	1	1	1	14	525	9	35	10	45.983269	Đoán
5	1	1	1	1	15	566	9	29	10	93.235672	Hình
5	1	1	1	1	16	601	5	108	14	52.739620	Ảnh(SA-XO-CTI
4	1	1	1	2	0	10	29	592	22	-1	
5	1	1	1	2	1	10	35	15	16	47.959026	s3
5	1	1	1	2	2	43	36	23	13	70.434456	Tiếp
5	1	1	1	2	3	78	36	28	13	70.434456	Đón
5	1	1	1	2	4	122	26	39	29	93.157959	Khám
5	1	1	1	2	5	170	26	37	29	93.157959	Bệnh
5	1	1	1	2	6	218	26	28	29	93.035309	Cận
5	1	1	1	2	7	254	26	26	29	93.262474	Lâm
5	1	1	1	2	8	298	36	5	3	92.941040	Sà
5	1	1	1	2	9	356	29	16	16	0.000000	Ö
5	1	1	1	2	10	381	32	41	14	91.339134	Thông
5	1	1	1	2	11	428	33	16	10	89.671120	tin
5	1	1	1	2	12	449	32	22	11	93.188515	văn
5	1	1	1	2	13	477	31	23	12	93.283798	bản
5	1	1	1	2	14	505	32	35	11	93.279274	trước
5	1	1	1	2	15	546	32	17	11	89.268768	khi
5	1	1	1	2	16	570	25	14	27	89.268768	ký
5	1	1	1	2	17	590	31	12	12	92.790688	số
4	1	1	1	3	0	0	31	323	31	-1	
5	1	1	1	3	1	0	49	3	11	77.173706	:
5	1	1	1	3	2	49	31	29	31	69.764175	lếp
5	1	1	1	3	3	181	50	3	2	84.118591	ệ
5	1	1	1	3	4	233	50	4	2	85.333794	â
5	1	1	1	3	5	288	37	35	15	79.445251	Sàng
2	1	2	0	0	0	11	60	120	30	-1	
3	1	2	1	0	0	11	60	120	30	-1	
4	1	2	1	1	0	11	60	120	30	-1	
5	1	2	1	1	1	7	56	33	49	87.891853	(+
5	1	2	1	1	2	58	60	73	30	0.000000	EZi
5	1	2	1	1	3	109	56	25	49	95.460815	X
2	1	3	0	0	0	199	60	89	30	-1	
3	1	3	1	0	0	199	60	89	30	-1	
4	1	3	1	1	0	199	60	89	30	-1	
5	1	3	1	1	1	199	60	89	30	38.680843	U)
2	1	4	0	0	0	10	125	334	6	-1	
3	1	4	1	0	0	10	125	334	6	-1	
4	1	4	1	1	0	10	125	334	6	-1	
5	1	4	1	1	1	10	125	334	6	95.000000	 
2	1	5	0	0	0	17	142	305	6	-1	
3	1	5	1	0	0	17	142	305	6	-1	
4	1	5	1	1	0	17	142	305	6	-1	
5	1	5	1	1	1	17	142	305	6	95.000000	 
2	1	6	0	0	0	17	142	305	6	-1	
3	1	6	1	0	0	17	142	305	6	-1	
4	1	6	1	1	0	17	142	305	6	-1	
5	1	6	1	1	1	17	142	305	6	95.000000	 
2	1	7	0	0	0	17	143	327	4	-1	
3	1	7	1	0	0	17	143	327	4	-1	
4	1	7	1	1	0	17	143	327	4	-1	
5	1	7	1	1	1	17	143	327	4	95.000000	 
2	1	8	0	0	0	17	142	327	5	-1	
3	1	8	1	0	0	17	142	327	5	-1	
4	1	8	1	1	0	17	142	327	5	-1	
5	1	8	1	1	1	17	142	327	5	95.000000	 
2	1	9	0	0	0	343	143	1	27	-1	
3	1	9	1	0	0	343	143	1	27	-1	
4	1	9	1	1	0	343	143	1	27	-1	
5	1	9	1	1	1	343	143	1	27	95.000000	 
2	1	10	0	0	0	160	144	1	25	-1	
3	1	10	1	0	0	160	144	1	25	-1	
4	1	10	1	1	0	160	144	1	25	-1	
5	1	10	1	1	1	160	144	1	25	95.000000	 
2	1	11	0	0	0	16	166	328	6	-1	
3	1	11	1	0	0	16	166	328	6	-1	
4	1	11	1	1	0	16	166	328	6	-1	
5	1	11	1	1	1	16	166	328	6	95.000000	 
2	1	12	0	0	0	134	304	104	1	-1	
3	1	12	1	0	0	134	304	104	1	-1	
4	1	12	1	1	0	134	304	104	1	-1	
5	1	12	1	1	1	134	304	104	1	95.000000	 
2	1	13	0	0	0	137	358	104	37	-1	
3	1	13	1	0	0	137	358	104	37	-1	
4	1	13	1	1	0	137	358	104	37	-1	
5	1	13	1	1	1	137	358	104	37	95.000000	 
2	1	14	0	0	0	136	453	102	1	-1	
3	1	14	1	0	0	136	453	102	1	-1	
4	1	14	1	1	0	136	453	102	1	-1	
5	1	14	1	1	1	136	453	102	1	95.000000	 
2	1	15	0	0	0	136	479	102	1	-1	
3	1	15	1	0	0	136	479	102	1	-1	
4	1	15	1	1	0	136	479	102	1	-1	
5	1	15	1	1	1	136	479	102	1	95.000000	 
2	1	16	0	0	0	136	483	102	1	-1	
3	1	16	1	0	0	136	483	102	1	-1	
4	1	16	1	1	0	136	483	102	1	-1	
5	1	16	1	1	1	136	483	102	1	95.000000	 
2	1	17	0	0	0	136	509	102	1	-1	
3	1	17	1	0	0	136	509	102	1	-1	
4	1	17	1	1	0	136	509	102	1	-1	
5	1	17	1	1	1	136	509	102	1	95.000000	 
2	1	18	0	0	0	237	452	1	71	-1	
3	1	18	1	0	0	237	452	1	71	-1	
4	1	18	1	1	0	237	452	1	71	-1	
5	1	18	1	1	1	237	452	1	71	95.000000	 
2	1	19	0	0	0	136	513	102	1	-1	
3	1	19	1	0	0	136	513	102	1	-1	
4	1	19	1	1	0	136	513	102	1	-1	
5	1	19	1	1	1	136	513	102	1	95.000000	 
2	1	20	0	0	0	7	97	337	481	-1	
3	1	20	1	0	0	7	97	337	481	-1	
4	1	20	1	1	0	7	97	284	16	-1	
5	1	20	1	1	1	7	97	40	14	91.497910	Thêm
5	1	20	1	1	2	61	97	26	14	91.497910	Sửa
5	1	20	1	1	3	103	97	27	14	93.049789	Xóa
5	1	20	1	1	4	147	99	24	11	83.667877	Lưu
5	1	20	1	1	5	187	97	47	16	61.167339	8öqua
5	1	20	1	1	6	255	97	36	16	91.423355	Đóng
4	1	20	1	2	0	16	141	327	32	-1	
5	1	20	1	2	1	16	141	64	32	2.132172	|24008923
5	1	20	1	2	2	146	151	68	18	56.639244	-|Recrd:
5	1	20	1	2	3	228	152	11	10	8.301407	!k
5	1	20	1	2	4	258	142	6	31	16.511398	!
5	1	20	1	2	5	273	150	1	16	65.969063	(
5	1	20	1	2	6	311	150	32	17	22.504311	lOf
4	1	20	1	3	0	45	184	299	16	-1	
5	1	20	1	3	1	45	184	22	15	93.138756	Nội
5	1	20	1	3	2	73	184	17	15	76.333122	bộ
5	1	20	1	3	3	164	185	60	15	75.789505	Sốphiếu
5	1	20	1	3	4	265	186	79	12	75.789505	 |25.0204.00
4	1	20	1	4	0	45	210	299	19	-1	
5	1	20	1	4	1	45	210	26	13	81.472565	Bên
5	1	20	1	4	2	77	210	37	15	88.967789	ngoài
5	1	20	1	4	3	165	211	52	13	71.732178	Pacsld
5	1	20	1	4	4	235	202	14	32	36.456142	-
5	1	20	1	4	5	265	212	79	17	16.925507	[250202400V
4	1	20	1	5	0	22	239	320	21	-1	
5	1	20	1	5	1	22	245	29	13	93.136909	Lâm
5	1	20	1	5	2	57	245	32	15	82.357277	sàng
5	1	20	1	5	3	140	245	34	13	16.754074	Viêm
5	1	20	1	5	4	179	244	32	16	92.666611	phối,
5	1	20	1	5	5	218	245	20	13	36.279938	khí
5	1	20	1	5	6	250	239	16	16	0.000000	##
5	1	20	1	5	7	276	242	46	14	80.567741	Nghiệp
5	1	20	1	5	8	327	245	15	8	42.685631	vụi
4	1	20	1	6	0	19	281	325	19	-1	
5	1	20	1	6	1	19	285	113	15	41.191109	Đơnvịthựchiện
5	1	20	1	6	2	143	285	33	13	51.292068	Khoa
5	1	20	1	6	3	183	285	50	13	42.931370	Hồisức.
5	1	20	1	6	4	264	281	11	11	73.763412	@
5	1	20	1	6	5	285	282	26	18	91.797745	Ký
5	1	20	1	6	6	315	281	29	15	93.118179	mới
4	1	20	1	7	0	17	310	304	23	-1	
5	1	20	1	7	1	17	313	89	15	32.549255	ThờigianE8D
5	1	20	1	7	2	140	310	98	15	71.541016	|25/02/202
5	1	20	1	7	3	264	318	11	10	86.675560	c
5	1	20	1	7	4	285	317	36	16	58.792873	Hủy
4	1	20	1	8	0	19	333	296	21	-1	
5	1	20	1	8	1	19	336	22	16	93.054794	Nội
5	1	20	1	8	2	46	336	35	16	87.231598	dung
5	1	20	1	8	3	140	342	14	12	53.004486	¬g
5	1	20	1	8	4	160	340	35	14	92.692917	ngực
5	1	20	1	8	5	200	336	38	18	66.880295	thẳng
5	1	20	1	8	6	311	333	4	3	53.463295	l
4	1	20	1	9	0	19	358	315	24	-1	
5	1	20	1	9	1	19	367	17	12	92.562187	BS
5	1	20	1	9	2	42	366	21	13	92.535690	kết
5	1	20	1	9	3	68	366	29	16	73.544342	luận
5	1	20	1	9	4	264	358	11	10	74.822350	C
5	1	20	1	9	5	285	358	49	18	0.000000	Kýhĩ
4	1	20	1	10	0	22	401	103	16	-1	
5	1	20	1	10	1	22	401	16	16	93.097153	Kỹ
5	1	20	1	10	2	42	401	37	16	93.259354	thuật
5	1	20	1	10	3	84	401	28	13	93.244781	viên
5	1	20	1	10	4	119	403	6	11	96.782211	1
4	1	20	1	11	0	19	426	105	16	-1	
5	1	20	1	11	1	19	426	16	16	92.561913	Kỹ
5	1	20	1	11	2	40	426	37	15	91.636513	thuật
5	1	20	1	11	3	81	426	28	13	93.209419	viên
5	1	20	1	11	4	115	427	9	12	95.420647	2
4	1	20	1	12	0	18	456	53	16	-1	
5	1	20	1	12	1	18	456	36	13	92.433128	Thiết
5	1	20	1	12	2	59	456	12	16	93.203217	bị
4	1	20	1	13	0	19	486	52	13	-1	
5	1	20	1	13	1	19	486	22	13	85.500572	Ghi
5	1	20	1	13	2	46	486	25	13	92.781197	chú
4	1	20	1	14	0	22	516	203	18	-1	
5	1	20	1	14	1	22	516	35	16	92.992783	Nhận
5	1	20	1	14	2	62	516	22	13	93.255028	xét
5	1	20	1	14	3	143	519	28	13	91.869148	Bình
5	1	20	1	14	4	177	519	48	15	93.182076	thường
4	1	20	1	15	0	137	531	207	14	-1	
5	1	20	1	15	1	133	517	39	33	8.329018	[Bình
5	1	20	1	15	2	179	517	48	33	79.013527	thưởng
5	1	20	1	15	3	237	531	17	14	18.321014	.
5	1	20	1	15	4	265	531	79	14	3.744186	„....ụ
4	1	20	1	16	0	19	545	324	15	-1	
5	1	20	1	16	1	19	546	12	14	91.386620	Vị
5	1	20	1	16	2	36	545	19	13	81.263016	Trí
5	1	20	1	16	3	59	545	33	13	93.029060	Thực
5	1	20	1	16	4	217	546	126	2	39.203793	—
4	1	20	1	17	0	19	562	30	16	-1	
5	1	20	1	17	1	19	562	30	16	92.860275	Hiện
2	1	21	0	0	0	134	239	5	335	-1	
3	1	21	1	0	0	134	239	5	335	-1	
4	1	21	1	1	0	134	239	5	335	-1	
5	1	21	1	1	1	134	239	5	335	95.000000	 
2	1	22	0	0	0	134	239	5	335	-1	
3	1	22	1	0	0	134	239	5	335	-1	
4	1	22	1	1	0	134	239	5	335	-1	
5	1	22	1	1	1	134	239	5	335	95.000000	 
2	1	23	0	0	0	134	572	210	3	-1	
3	1	23	1	0	0	134	572	210	3	-1	
4	1	23	1	1	0	134	572	210	3	-1	
5	1	23	1	1	1	134	572	210	3	95.000000	 
2	1	24	0	0	0	94	617	152	3	-1	
3	1	24	1	0	0	94	617	152	3	-1	
4	1	24	1	1	0	94	617	152	3	-1	
5	1	24	1	1	1	94	617	152	3	95.000000	 
2	1	25	0	0	0	94	618	1	27	-1	
3	1	25	1	0	0	94	618	1	27	-1	
4	1	25	1	1	0	94	618	1	27	-1	
5	1	25	1	1	1	94	618	1	27	95.000000	 
2	1	26	0	0	0	24	621	191	16	-1	
3	1	26	1	0	0	24	621	191	16	-1	
4	1	26	1	1	0	24	621	191	16	-1	
5	1	26	1	1	1	24	621	19	13	80.328506	Mãy
5	1	26	1	1	2	49	621	27	16	51.231346	tế
5	1	26	1	1	3	98	625	117	12	54.852772	|22044.24008423
2	1	27	0	0	0	245	618	1	27	-1	
3	1	27	1	0	0	245	618	1	27	-1	
4	1	27	1	1	0	245	618	1	27	-1	
5	1	27	1	1	1	245	618	1	27	95.000000	 
2	1	28	0	0	0	94	643	152	3	-1	
3	1	28	1	0	0	94	643	152	3	-1	
4	1	28	1	1	0	94	643	152	3	-1	
5	1	28	1	1	1	94	643	152	3	95.000000	 
2	1	29	0	0	0	24	669	98	13	-1	
3	1	29	1	0	0	24	669	98	13	-1	
4	1	29	1	1	0	24	669	98	13	-1	
5	1	29	1	1	1	24	669	25	13	92.694374	Giới
5	1	29	1	1	2	55	669	26	13	93.103943	tính
5	1	29	1	1	3	91	670	31	12	58.800133	Nam.
2	1	30	0	0	0	6	127	10	843	-1	
3	1	30	1	0	0	6	127	10	843	-1	
4	1	30	1	1	0	6	127	10	843	-1	
5	1	30	1	1	1	6	127	10	843	95.000000	 
2	1	31	0	0	0	24	645	195	17	-1	
3	1	31	1	0	0	24	645	195	17	-1	
4	1	31	1	1	0	24	645	195	17	-1	
5	1	31	1	1	1	24	646	18	14	93.241699	Họ
5	1	31	1	1	2	47	645	22	13	92.229424	tên
5	1	31	1	1	3	79	641	9	31	54.419460	.
5	1	31	1	1	4	90	650	56	12	85.955139	NGUYỄN
5	1	31	1	1	5	151	646	27	16	93.093857	VĂN
5	1	31	1	1	6	184	650	35	12	91.685211	TEST
2	1	32	0	0	0	147	667	187	15	-1	
3	1	32	1	0	0	147	667	187	15	-1	
4	1	32	1	1	0	147	667	187	15	-1	
5	1	32	1	1	1	147	669	104	13	57.929497	Nămsinh1999
5	1	32	1	1	2	276	667	30	15	70.326172	Tuối
5	1	32	1	1	3	317	670	17	12	96.920746	26
2	1	33	0	0	0	342	542	3	165	-1	
3	1	33	1	0	0	342	542	3	165	-1	
4	1	33	1	1	0	342	542	3	165	-1	
5	1	33	1	1	1	342	542	3	165	95.000000	 
2	1	34	0	0	0	10	966	329	6	-1	
3	1	34	1	0	0	10	966	329	6	-1	
4	1	34	1	1	0	10	966	329	6	-1	
5	1	34	1	1	1	10	966	329	6	95.000000	 
2	1	35	0	0	0	436	57	539	7	-1	
3	1	35	1	0	0	436	57	539	7	-1	
4	1	35	1	1	0	436	57	539	7	-1	
5	1	35	1	1	1	436	57	63	3	26.489220	—
5	1	35	1	1	2	524	57	44	7	42.925560	—
5	1	35	1	1	3	574	57	12	3	37.679359	m
5	1	35	1	1	4	600	57	18	7	48.953861	G
5	1	35	1	1	5	639	57	10	6	3.321236	X
5	1	35	1	1	6	653	57	15	6	7.743645	n
5	1	35	1	1	7	674	57	38	6	29.782684	m
5	1	35	1	1	8	714	41	12	28	19.431046	m
5	1	35	1	1	9	737	57	1	6	51.967773	l
5	1	35	1	1	10	763	57	46	6	0.000000	m
5	1	35	1	1	11	815	57	9	3	0.000000	e
5	1	35	1	1	12	825	57	55	6	35.191872	0=
5	1	35	1	1	13	886	57	36	7	32.464592	X-
5	1	35	1	1	14	919	41	8	28	0.000000	ế
5	1	35	1	1	15	929	57	46	3	53.784748	5
2	1	36	0	0	0	432	100	678	94	-1	
3	1	36	1	0	0	432	100	678	94	-1	
4	1	36	1	1	0	432	100	64	18	-1	
5	1	36	1	1	1	432	100	64	18	90.612671	MÔTẢ
4	1	36	1	2	0	529	132	581	28	-1	
5	1	36	1	2	1	529	137	48	18	93.088104	Hình
5	1	36	1	2	2	584	137	36	18	90.440857	ảnh
5	1	36	1	2	3	626	137	30	18	93.235031	dài
5	1	36	1	2	4	663	143	26	12	93.282265	xơ
5	1	36	1	2	5	695	137	35	23	93.215637	đập
5	1	36	1	2	6	737	137	24	18	93.201324	và
5	1	36	1	2	7	766	132	36	28	49.663471	dầy
5	1	36	1	2	8	809	132	19	23	92.098160	tổ
5	1	36	1	2	9	835	137	47	18	92.134018	chức
5	1	36	1	2	10	889	138	55	22	88.032104	màng
5	1	36	1	2	11	951	132	43	28	35.834663	phổi
5	1	36	1	2	12	1001	132	23	23	62.029789	dầ
5	1	36	1	2	13	1031	137	29	18	86.601311	hai
5	1	36	1	2	14	1067	132	43	28	75.182831	phổi
4	1	36	1	3	0	457	166	261	28	-1	
5	1	36	1	3	1	457	171	67	23	92.433624	Không
5	1	36	1	3	2	530	171	39	18	92.652031	tràn
5	1	36	1	3	3	576	171	30	17	92.938293	khi
5	1	36	1	3	4	614	171	55	23	79.042023	mảng
5	1	36	1	3	5	675	166	43	28	43.329330	phối
2	1	37	0	0	0	431	236	867	184	-1	
3	1	37	1	0	0	456	236	342	23	-1	
4	1	37	1	1	0	456	236	342	23	-1	
5	1	37	1	1	1	456	236	41	17	35.371307	Tim
5	1	37	1	1	2	504	236	24	18	92.999046	và
5	1	37	1	1	3	534	236	54	21	92.459541	mạch
5	1	37	1	1	4	594	236	43	18	92.989456	máu
5	1	37	1	1	5	644	236	25	18	93.299873	lới
5	1	37	1	1	6	677	236	44	18	93.258247	bình
5	1	37	1	1	7	727	236	71	23	91.969879	thường
3	1	37	2	0	0	458	264	463	27	-1	
4	1	37	2	1	0	458	264	463	27	-1	
5	1	37	2	1	1	458	268	66	23	93.137505	Không
5	1	37	2	1	2	531	269	37	17	53.370987	tràn
5	1	37	2	1	3	575	268	43	21	93.170876	dịch
5	1	37	2	1	4	625	269	55	22	92.623909	màng
5	1	37	2	1	5	687	264	42	27	60.477833	phổi
5	1	37	2	1	6	737	269	23	17	93.270561	và
5	1	37	2	1	7	767	269	54	22	62.841927	màng
5	1	37	2	1	8	828	268	54	23	93.105270	ngoài
5	1	37	2	1	9	890	268	31	18	67.347626	tim
3	1	37	3	0	0	457	297	409	28	-1	
4	1	37	3	1	0	457	297	409	28	-1	
5	1	37	3	1	1	457	302	67	23	92.649734	Không
5	1	37	3	1	2	530	297	32	23	71.645012	tồn
5	1	37	3	1	3	569	302	70	23	91.664505	thương
5	1	37	3	1	4	646	297	48	28	84.537445	phần
5	1	37	3	1	5	701	297	48	23	85.443916	mềm
5	1	37	3	1	6	756	302	55	18	92.132874	thành
5	1	37	3	1	7	818	307	48	18	92.380981	ngực
3	1	37	4	0	0	431	334	867	52	-1	
4	1	37	4	1	0	457	334	841	24	-1	
5	1	37	4	1	1	457	334	98	19	91.928421	x2443434
5	1	37	4	1	2	563	334	71	18	92.352356	fdsfsdf
5	1	37	4	1	3	635	334	35	24	35.310165	jjjJj
5	1	37	4	1	4	679	334	110	18	93.204155	sdsdasdsda
5	1	37	4	1	5	796	340	20	12	93.147339	sa
5	1	37	4	1	6	822	334	128	18	93.102707	asdasdssssad
5	1	37	4	1	7	957	334	165	18	92.013069	dasdasdsasdasad
5	1	37	4	1	8	1129	334	169	18	92.342178	sfsdfdsfddsdasds
4	1	37	4	2	0	431	364	102	22	-1	
5	1	37	4	2	1	427	360	42	36	84.875404	KÉT
5	1	37	4	2	2	481	360	54	36	66.735924	LUẬN
3	1	37	5	0	0	457	398	421	22	-1	
4	1	37	5	1	0	457	398	421	22	-1	
5	1	37	5	1	1	457	402	38	14	88.912964	Hình
5	1	37	5	1	2	500	402	28	14	92.231667	ảnh
5	1	37	5	1	3	533	402	34	14	87.890564	theo
5	1	37	5	1	4	572	402	24	14	87.890564	dõi
5	1	37	5	1	5	602	398	25	18	82.763626	tổn
5	1	37	5	1	6	632	402	55	18	93.078255	thương
5	1	37	5	1	7	692	402	38	14	92.237061	viêm
5	1	37	5	1	8	736	398	34	22	18.879990	phỏi
5	1	37	5	1	9	776	407	25	9	89.524193	zzz
5	1	37	5	1	10	807	402	71	14	86.294815	fdsfsddfs
2	1	38	0	0	0	1105	449	305	46	-1	
3	1	38	1	0	0	1105	449	305	46	-1	
4	1	38	1	1	0	1105	449	305	19	-1	
5	1	38	1	1	1	1105	449	18	15	93.305412	13
5	1	38	1	1	2	1127	449	28	19	93.117905	giờ
5	1	38	1	1	3	1160	449	18	14	77.807831	02
5	1	38	1	1	4	1188	461	3	3	77.807831	,
5	1	38	1	1	5	1198	449	42	19	93.115234	Ngày
5	1	38	1	1	6	1244	449	19	15	93.303719	25
5	1	38	1	1	7	1269	449	45	19	93.269524	tháng
5	1	38	1	1	8	1318	449	10	14	93.306183	2
5	1	38	1	1	9	1333	450	33	14	93.077034	năm
5	1	38	1	1	10	1372	449	38	15	96.886757	2025
4	1	38	1	2	0	1107	476	301	19	-1	
5	1	38	1	2	1	1107	479	60	16	92.430496	KHOA
5	1	38	1	2	2	1172	476	60	19	22.500755	CHẮN
5	1	38	1	2	3	1239	476	59	19	91.579826	ĐOÁN
5	1	38	1	2	4	1306	476	51	19	92.609482	HÌNH
5	1	38	1	2	5	1363	476	45	19	91.766235	ẢNH
2	1	39	0	0	0	1175	603	166	20	-1	
3	1	39	1	0	0	1175	603	166	20	-1	
4	1	39	1	1	0	1175	603	166	20	-1	
5	1	39	1	1	1	1175	603	26	15	92.212723	Bs.
5	1	39	1	1	2	1208	603	26	15	93.285126	Vũ
5	1	39	1	1	3	1240	603	36	15	92.203392	Văn
5	1	39	1	1	4	1282	603	59	20	92.810204	Thông
2	1	40	0	0	0	1561	315	8	491	-1	
3	1	40	1	0	0	1561	315	8	491	-1	
4	1	40	1	1	0	1561	315	8	491	-1	
5	1	40	1	1	1	1561	315	8	491	95.000000	 
2	1	41	0	0	0	1588	35	87	17	-1	
3	1	41	1	0	0	1588	35	87	17	-1	
4	1	41	1	1	0	1588	36	19	14	-1	
5	1	41	1	1	1	1588	36	19	14	35.904533	„
4	1	41	1	2	0	1625	36	27	16	-1	
5	1	41	1	2	1	1625	36	27	16	42.800095	8
4	1	41	1	3	0	1657	35	18	14	-1	
5	1	41	1	3	1	1657	35	18	14	69.355003	i
2	1	42	0	0	0	1575	232	53	3	-1	
3	1	42	1	0	0	1575	232	53	3	-1	
4	1	42	1	1	0	1575	232	53	3	-1	
5	1	42	1	1	1	1575	232	53	3	95.000000	 
2	1	43	0	0	0	1616	232	65	28	-1	
3	1	43	1	0	0	1616	232	65	28	-1	
4	1	43	1	1	0	1616	232	65	28	-1	
5	1	43	1	1	1	1616	232	65	28	21.345528	z]|[zoom
2	1	44	0	0	0	1611	233	1	27	-1	
3	1	44	1	0	0	1611	233	1	27	-1	
4	1	44	1	1	0	1611	233	1	27	-1	
5	1	44	1	1	1	1611	233	1	27	95.000000	 
2	1	45	0	0	0	1627	233	1	27	-1	
3	1	45	1	0	0	1627	233	1	27	-1	
4	1	45	1	1	0	1627	233	1	27	-1	
5	1	45	1	1	1	1627	233	1	27	95.000000	 
2	1	46	0	0	0	1575	258	53	3	-1	
3	1	46	1	0	0	1575	258	53	3	-1	
4	1	46	1	1	0	1575	258	53	3	-1	
5	1	46	1	1	1	1575	258	53	3	95.000000	 
2	1	47	0	0	0	1575	571	212	17	-1	
3	1	47	1	0	0	1575	571	212	17	-1	
4	1	47	1	1	0	1575	571	212	17	-1	
5	1	47	1	1	1	1575	571	49	17	46.742588	1Jasad
5	1	47	1	1	2	1630	571	157	17	91.772682	sfsdfdsfddsdasds
2	1	48	0	0	0	1862	36	52	12	-1	
3	1	48	1	0	0	1862	36	52	12	-1	
4	1	48	1	1	0	1862	36	52	12	-1	
5	1	48	1	1	1	1862	36	52	12	5.201576	-Øx
2	1	49	0	0	0	1858	330	7	481	-1	
3	1	49	1	0	0	1858	330	7	481	-1	
4	1	49	1	1	0	1858	330	7	481	-1	
5	1	49	1	1	1	1858	330	7	481	95.000000	 
2	1	50	0	0	0	1575	848	328	3	-1	
3	1	50	1	0	0	1575	848	328	3	-1	
4	1	50	1	1	0	1575	848	328	3	-1	
5	1	50	1	1	1	1575	848	328	3	95.000000	 
2	1	51	0	0	0	1575	916	328	4	-1	
3	1	51	1	0	0	1575	916	328	4	-1	
4	1	51	1	1	0	1575	916	328	4	-1	
5	1	51	1	1	1	1575	916	328	4	95.000000	 
2	1	52	0	0	0	1575	926	328	4	-1	
3	1	52	1	0	0	1575	926	328	4	-1	
4	1	52	1	1	0	1575	926	328	4	-1	
5	1	52	1	1	1	1575	926	328	4	95.000000	 
2	1	53	0	0	0	1902	849	1	103	-1	
3	1	53	1	0	0	1902	849	1	103	-1	
4	1	53	1	1	0	1902	849	1	103	-1	
5	1	53	1	1	1	1902	849	1	103	95.000000	 
2	1	54	0	0	0	1575	949	328	4	-1	
3	1	54	1	0	0	1575	949	328	4	-1	
4	1	54	1	1	0	1575	949	328	4	-1	
5	1	54	1	1	1	1575	949	328	4	95.000000	 
2	1	55	0	0	0	1575	812	1	163	-1	
3	1	55	1	0	0	1575	812	1	163	-1	
4	1	55	1	1	0	1575	812	1	163	-1	
5	1	55	1	1	1	1575	812	1	163	95.000000	 
